Radius,Qs
0,NaN
0.001,5.68E-14
0.002,3.63E-12
0.003,4.14E-11
0.004,2.33E-10
0.005,8.87E-10
0.006,2.65E-09
0.007,6.68E-09
0.008,1.49E-08
0.009,3.02E-08
0.01,5.68E-08
0.011,1.01E-07
0.012,1.69E-07
0.013,2.74E-07
0.014,4.27E-07
0.015,6.46E-07
0.016,9.52E-07
0.017,1.37E-06
0.018,1.93E-06
0.019,2.67E-06
0.02,3.63E-06
0.021,4.86E-06
0.022,6.42E-06
0.023,8.38E-06
0.024,1.08E-05
0.025,1.38E-05
0.026,1.74E-05
0.027,2.19E-05
0.028,2.72E-05
0.029,3.35E-05
0.03,4.10E-05
0.031,4.98E-05
0.032,6.02E-05
0.033,7.23E-05
0.034,8.63E-05
0.035,0.000102477
0.036,0.000121077
0.037,0.000142363
0.038,0.000166621
0.039,0.000194159
0.04,0.000225301
0.041,0.000260391
0.042,0.000299791
0.043,0.00034388
0.044,0.000393055
0.045,0.000447729
0.046,0.00050833
0.047,0.000575297
0.048,0.000649086
0.049,0.00073016
0.05,0.000818991
0.051,0.000916059
0.052,0.001021847
0.053,0.001136841
0.054,0.001261527
0.055,0.001396389
0.056,0.001541907
0.057,0.001698553
0.058,0.001866792
0.059,0.00204708
0.06,0.002239862
0.061,0.002445569
0.062,0.002664625
0.063,0.002897437
0.064,0.003144407
0.065,0.003405927
0.066,0.003682383
0.067,0.003974159
0.068,0.004281644
0.069,0.004605236
0.07,0.004945344
0.071,0.005302405
0.072,0.005676884
0.073,0.006069288
0.074,0.006480173
0.075,0.006910159
0.076,0.007359935
0.077,0.007830276
0.078,0.008322052
0.079,0.008836238
0.08,0.009373926
0.081,0.009936334
0.082,0.010524813
0.083,0.011140857
0.084,0.011786101
0.085,0.012462326
0.086,0.013171454
0.087,0.013915543
0.088,0.014696776
0.089,0.015517441
0.09,0.016379913
0.091,0.017286622
0.092,0.01824002
0.093,0.019242539
0.094,0.020296546
0.095,0.021404287
0.096,0.022567832
0.097,0.023789014
0.098,0.025069367
0.099,0.026410063
0.1,0.027811858
0.101,0.029275036
0.102,0.030799369
0.103,0.032384087
0.104,0.034027861
0.105,0.035728806
0.106,0.037484502
0.107,0.039292034
0.108,0.041148054
0.109,0.043048858
0.11,0.044990479
0.111,0.046968798
0.112,0.048979654
0.113,0.051018966
0.114,0.053082848
0.115,0.055167727
0.116,0.057270441
0.117,0.059388334
0.118,0.061519328
0.119,0.063661985
0.12,0.065815549
0.121,0.06797997
0.122,0.070155917
0.123,0.072344775
0.124,0.074548627
0.125,0.076770233
0.126,0.079012996
0.127,0.081280924
0.128,0.08357859
0.129,0.08591108
0.13,0.088283951
0.131,0.090703172
0.132,0.093175071
0.133,0.095706275
0.134,0.09830364
0.135,0.100974179
0.136,0.103724978
0.137,0.106563097
0.138,0.10949547
0.139,0.112528779
0.14,0.11566932
0.141,0.118922858
0.142,0.122294466
0.143,0.125788356
0.144,0.12940771
0.145,0.133154509
0.146,0.137029379
0.147,0.141031443
0.148,0.145158221
0.149,0.149405551
0.15,0.15376757
0.151,0.158236747
0.152,0.162803982
0.153,0.167458764
0.154,0.172189394
0.155,0.176983262
0.156,0.181827174
0.157,0.186707707
0.158,0.191611578
0.159,0.196526014
0.16,0.201439102
0.161,0.206340104
0.162,0.21121972
0.163,0.216070317
0.164,0.220886032
0.165,0.225662925
0.166,0.230398976
0.167,0.235094075
0.168,0.239749964
0.169,0.24437015
0.17,0.248959783
0.171,0.253525535
0.172,0.258075462
0.173,0.262618866
0.174,0.267166161
0.175,0.271728743
0.176,0.276318863
0.177,0.280949502
0.178,0.285634246
0.179,0.290387154
0.18,0.295222617
0.181,0.300155198
0.182,0.305199456
0.183,0.310369733
0.184,0.315679919
0.185,0.321143171
0.186,0.326771604
0.187,0.332575936
0.188,0.338565111
0.189,0.344745896
0.19,0.351122463
0.191,0.357695994
0.192,0.364464308
0.193,0.371421557
0.194,0.378558013
0.195,0.385859973
0.196,0.393309822
0.197,0.400886256
0.198,0.408564697
0.199,0.416317879
0.2,0.424116596
0.201,0.431930583
0.202,0.439729475
0.203,0.447483797
0.204,0.455165928
0.205,0.46275097
0.206,0.470217494
0.207,0.477548102
0.208,0.484729813
0.209,0.491754243
0.21,0.498617605
0.211,0.505320548
0.212,0.511867907
0.213,0.51826817
0.214,0.524533255
0.215,0.530677901
0.216,0.536719244
0.217,0.542676377
0.218,0.548569957
0.219,0.554421853
0.22,0.560254846
0.221,0.566092386
0.222,0.571958371
0.223,0.577876976
0.224,0.583872485
0.225,0.589969136
0.226,0.596190945
0.227,0.602561506
0.228,0.609103742
0.229,0.615839588
0.23,0.622789605
0.231,0.629972494
0.232,0.637404517
0.233,0.645098828
0.234,0.653064705
0.235,0.661306732
0.236,0.669823953
0.237,0.678609054
0.238,0.68764765
0.239,0.696917746
0.24,0.706389475
0.241,0.71602518
0.242,0.725779925
0.243,0.735602459
0.244,0.74543664
0.245,0.755223269
0.246,0.764902238
0.247,0.77441484
0.248,0.78370609
0.249,0.792726868
0.25,0.801435729
0.251,0.809800261
0.252,0.817797917
0.253,0.8254163
0.254,0.832652949
0.255,0.839514694
0.256,0.846016692
0.257,0.852181262
0.258,0.858036626
0.259,0.863615655
0.26,0.868954701
0.261,0.874092651
0.262,0.879069696
0.263,0.88392716
0.264,0.888706628
0.265,0.893449647
0.266,0.898197478
0.267,0.902990939
0.268,0.907870309
0.269,0.912875272
0.27,0.918044854
0.271,0.923417319
0.272,0.929029998
0.273,0.934919003
0.274,0.941118805
0.275,0.947661622
0.276,0.95457661
0.277,0.96188881
0.278,0.969617865
0.279,0.977776499
0.28,0.98636881
0.281,0.995388448
0.282,1.004816812
0.283,1.014621414
0.284,1.024754646
0.285,1.035153173
0.286,1.045738187
0.287,1.056416723
0.288,1.067084146
0.289,1.077627785
0.29,1.087931538
0.291,1.097881132
0.292,1.107369565
0.293,1.116302239
0.294,1.124601275
0.295,1.132208625
0.296,1.139087765
0.297,1.145223908
0.298,1.150622901
0.299,1.155309062
0.3,1.15932231
0.301,1.162714957
0.302,1.165548466
0.303,1.167890452
0.304,1.169812076
0.305,1.171385932
0.306,1.17268445
0.307,1.173778792
0.308,1.174738329
0.309,1.175629733
0.31,1.176517804
0.311,1.177465074
0.312,1.178532232
0.313,1.179778479
0.314,1.18126188
0.315,1.183039661
0.316,1.185168393
0.317,1.187703998
0.318,1.190701528
0.319,1.194214627
0.32,1.198294622
0.321,1.202989154
0.322,1.208340287
0.323,1.214382037
0.324,1.221137325
0.325,1.228614385
0.326,1.236802793
0.327,1.245669368
0.328,1.255154368
0.329,1.265168511
0.33,1.275591483
0.331,1.286272579
0.332,1.297034034
0.333,1.307677293
0.334,1.317992084
0.335,1.327767635
0.336,1.336804901
0.337,1.344928387
0.338,1.351996113
0.339,1.357906517
0.34,1.36260165
0.341,1.366066596
0.342,1.368325649
0.343,1.36943616
0.344,1.36948113
0.345,1.368561576
0.346,1.366789461
0.347,1.364281732
0.348,1.361155706
0.349,1.357525833
0.35,1.353501713
0.351,1.349187155
0.352,1.344680033
0.353,1.340072718
0.354,1.33545308
0.355,1.330904723
0.356,1.326509211
0.357,1.322346422
0.358,1.318495736
0.359,1.31503691
0.36,1.312050768
0.361,1.309619641
0.362,1.307827494
0.363,1.306759638
0.364,1.30650191
0.365,1.307139176
0.366,1.308752961
0.367,1.311418049
0.368,1.315197843
0.369,1.320138397
0.37,1.326261127
0.371,1.333554437
0.372,1.341964843
0.373,1.351388566
0.374,1.361665008
0.375,1.37257387
0.376,1.383837707
0.377,1.395131313
0.378,1.406098352
0.379,1.416374222
0.38,1.425612547
0.381,1.433511441
0.382,1.439835396
0.383,1.444429316
0.384,1.447222934
0.385,1.448225867
0.386,1.44751533
0.387,1.445219536
0.388,1.441499944
0.389,1.436534911
0.39,1.430506409
0.391,1.423590471
0.392,1.415951306
0.393,1.407738542
0.394,1.399086836
0.395,1.390117114
0.396,1.380938752
0.397,1.371652215
0.398,1.362351784
0.399,1.353128373
0.4,1.344071037
0.401,1.335270262
0.402,1.326818927
0.403,1.318813969
0.404,1.311357587
0.405,1.304558161
0.406,1.298530842
0.407,1.29339774
0.408,1.289287529
0.409,1.286334252
0.41,1.284675007
0.411,1.28444607
0.412,1.285776994
0.413,1.288782138
0.414,1.293549196
0.415,1.300124568
0.416,1.308495948
0.417,1.318573429
0.418,1.330171641
0.419,1.34299679
0.42,1.356643484
0.421,1.370606129
0.422,1.384307928
0.423,1.397146648
0.424,1.408551372
0.425,1.41803996
0.426,1.425265274
0.427,1.430040467
0.428,1.432339284
0.429,1.43227402
0.43,1.43005882
0.431,1.425967906
0.432,1.42029705
0.433,1.413333609
0.434,1.40533707
0.435,1.396529524
0.436,1.387093998
0.437,1.377178117
0.438,1.36690075
0.439,1.356359786
0.44,1.34563976
0.441,1.334818583
0.442,1.323973017
0.443,1.313182858
0.444,1.302534154
0.445,1.292120384
0.446,1.282045099
0.447,1.272422015
0.448,1.263375906
0.449,1.255043215
0.45,1.247572631
0.451,1.241125597
0.452,1.235876608
0.453,1.232012964
0.454,1.229733508
0.455,1.229245622
0.456,1.230759498
0.457,1.234478433
0.458,1.24058372
0.459,1.249212784
0.46,1.26042979
0.461,1.274189445
0.462,1.290297408
0.463,1.308374544
0.464,1.327836488
0.465,1.347902434
0.466,1.367644814
0.467,1.386082261
0.468,1.402302945
0.469,1.415590125
0.47,1.425515529
0.471,1.43197454
0.472,1.435157205
0.473,1.435470333
0.474,1.433438072
0.475,1.429607853
0.476,1.424479287
0.477,1.418462221
0.478,1.411861456
0.479,1.404881306
0.48,1.397642297
0.481,1.390203448
0.482,1.382585335
0.483,1.374790914
0.484,1.366822434
0.485,1.358693824
0.486,1.350438667
0.487,1.342114295
0.488,1.333802878
0.489,1.325610415
0.49,1.317664823
0.491,1.310112466
0.492,1.303117328
0.493,1.296858588
0.494,1.291530284
0.495,1.28734172
0.496,1.284518678
0.497,1.283305026
0.498,1.283964023
0.499,1.286778276
0.5,1.292046735
0.501,1.300076436
0.502,1.311165932
0.503,1.325576602
0.504,1.343488028
0.505,1.364935167
0.506,1.389729689
0.507,1.417376855
0.508,1.447012256
0.509,1.477394995
0.51,1.506995041
0.511,1.534190484
0.512,1.55754366
0.513,1.576074514
0.514,1.5894321
0.515,1.597902415
0.516,1.602263021
0.517,1.603554377
0.518,1.602851732
0.519,1.601095152
0.52,1.598996472
0.521,1.597013562
0.522,1.595370662
0.523,1.594103983
0.524,1.593117153
0.525,1.592236693
0.526,1.591261756
0.527,1.590004873
0.528,1.588321997
0.529,1.586131367
0.53,1.583421781
0.531,1.580251864
0.532,1.576742646
0.533,1.5730661
0.534,1.569432241
0.535,1.566076958
0.536,1.563252159
0.537,1.561219136
0.538,1.560245806
0.539,1.560605879
0.54,1.562583983
0.541,1.56648012
0.542,1.572616791
0.543,1.581345572
0.544,1.593051192
0.545,1.608149571
0.546,1.627074415
0.547,1.650244481
0.548,1.678001266
0.549,1.710506555
0.55,1.747595146
0.551,1.788596235
0.552,1.832171844
0.553,1.876264698
0.554,1.918268199
0.555,1.955475719
0.556,1.985716302
0.557,2.007922107
0.558,2.022353681
0.559,2.030389868
0.56,2.034028658
0.561,2.035350958
0.562,2.036131764
0.563,2.037650216
0.564,2.040657489
0.565,2.045435463
0.566,2.05189322
0.567,2.059671988
0.568,2.068246547
0.569,2.077019291
0.57,2.085404637
0.571,2.09290014
0.572,2.099139459
0.573,2.103922975
0.574,2.10722464
0.575,2.109177442
0.576,2.110043314
0.577,2.110175102
0.578,2.109978107
0.579,2.109877008
0.58,2.110291619
0.581,2.111622674
0.582,2.114247162
0.583,2.118521807
0.584,2.124792921
0.585,2.133410908
0.586,2.144747721
0.587,2.159215414
0.588,2.177283132
0.589,2.199488468
0.59,2.226432153
0.591,2.258749074
0.592,2.297023995
0.593,2.341628993
0.594,2.39245243
0.595,2.448525513
0.596,2.50764201
0.597,2.566209819
0.598,2.619663206
0.599,2.663586406
0.6,2.695176357
0.601,2.714214551
0.602,2.722936334
0.603,2.724982719
0.604,2.724164062
0.605,2.723619444
0.606,2.725496911
0.607,2.730985142
0.608,2.740487777
0.609,2.753811534
0.61,2.770322159
0.611,2.789070434
0.612,2.808907622
0.613,2.82860743
0.614,2.846999083
0.615,2.863100581
0.616,2.876229955
0.617,2.886070946
0.618,2.892679421
0.619,2.896433316
0.62,2.897943817
0.621,2.897952594
0.622,2.897237689
0.623,2.896542526
0.624,2.896533151
0.625,2.897781753
0.626,2.900770842
0.627,2.905911776
0.628,2.913572308
0.629,2.924109466
0.63,2.937905504
0.631,2.955405443
0.632,2.977154228
0.633,3.003828954
0.634,3.036255356
0.635,3.075385243
0.636,3.122190107
0.637,3.177397214
0.638,3.240977458
0.639,3.311351856
0.64,3.384529803
0.641,3.453854096
0.642,3.511319567
0.643,3.550587773
0.644,3.569959324
0.645,3.572905547
0.646,3.565896104
0.647,3.555554224
0.648,3.546938237
0.649,3.543176358
0.65,3.54581959
0.651,3.555333016
0.652,3.571464839
0.653,3.593450796
0.654,3.620100974
0.655,3.649839095
0.656,3.680762668
0.657,3.710776567
0.658,3.737819142
0.659,3.760150478
0.66,3.776625399
0.661,3.786859172
0.662,3.791228205
0.663,3.790714382
0.664,3.786659197
0.665,3.780511604
0.666,3.77363195
0.667,3.767176725
0.668,3.762057941
0.669,3.758955947
0.67,3.758363103
0.671,3.760641213
0.672,3.766082769
0.673,3.774971861
0.674,3.787644558
0.675,3.804550416
0.676,3.826316537
0.677,3.85381193
0.678,3.888199265
0.679,3.930935875
0.68,3.983633347
0.681,4.047595955
0.682,4.122770325
0.683,4.205958641
0.684,4.288947458
0.685,4.358801534
0.686,4.402802954
0.687,4.415945855
0.688,4.403792512
0.689,4.377865232
0.69,4.349143685
0.691,4.32489653
0.692,4.308805501
0.693,4.302234351
0.694,4.305346386
0.695,4.317747062
0.696,4.338734918
0.697,4.367302129
0.698,4.401998929
0.699,4.440763337
0.7,4.480832676
0.701,4.518866932
0.702,4.551371451
0.703,4.575369619
0.704,4.589092821
0.705,4.592371276
0.706,4.586538426
0.707,4.573926254
0.708,4.557217419
0.709,4.538911579
0.71,4.521024708
0.711,4.505005511
0.712,4.491791062
0.713,4.481924448
0.714,4.475683987
0.715,4.473200624
0.716,4.474558126
0.717,4.479880138
0.718,4.48941231
0.719,4.503608908
0.72,4.523232613
0.721,4.54947099
0.722,4.584055258
0.723,4.629314113
0.724,4.68796106
0.725,4.762137624
0.726,4.8509113
0.727,4.945921445
0.728,5.028253083
0.729,5.074565396
0.73,5.073763628
0.731,5.035942044
0.732,4.981776301
0.733,4.928195785
0.734,4.88395799
0.735,4.851966115
0.736,4.832372481
0.737,4.824463553
0.738,4.827480866
0.739,4.840841206
0.74,4.864059076
0.741,4.896466978
0.742,4.936792219
0.743,4.982650433
0.744,5.030142566
0.745,5.073902014
0.746,5.107950741
0.747,5.127335338
0.748,5.129814782
0.749,5.116550821
0.75,5.091372694
0.751,5.059207324
0.752,5.024640021
0.753,4.991143324
0.754,4.960941145
0.755,4.935224396
0.756,4.914467293
0.757,4.898713082
0.758,4.887790285
0.759,4.881465982
0.76,4.879557422
0.761,4.882024727
0.762,4.889065726
0.763,4.901233199
0.764,4.919595098
0.765,4.945953858
0.766,4.983109691
0.767,5.035025516
0.768,5.106345699
0.769,5.199755256
0.77,5.308709978
0.771,5.407252308
0.772,5.454815472
0.773,5.431226267
0.774,5.35815784
0.775,5.271681687
0.776,5.194185394
0.777,5.132922821
0.778,5.08785351
0.779,5.056932217
0.78,5.038231752
0.781,5.030528509
0.782,5.033332823
0.783,5.046730757
0.784,5.071106316
0.785,5.106679194
0.786,5.15274549
0.787,5.206579963
0.788,5.262332378
0.789,5.31085252
0.79,5.341730407
0.791,5.347507431
0.792,5.327368225
0.793,5.287136307
0.794,5.235793651
0.795,5.181668896
0.796,5.130529205
0.797,5.08550189
0.798,5.047803188
0.799,5.017524877
0.8,4.99420703
0.801,4.97718851
0.802,4.965805033
0.803,4.959503743
0.804,4.9579245
0.805,4.960983547
0.806,4.968989967
0.807,4.982829549
0.808,5.004262052
0.809,5.036382984
0.81,5.084232055
0.811,5.155111394
0.812,5.256541665
0.813,5.385880883
0.814,5.507375317
0.815,5.551782227
0.816,5.491451198
0.817,5.377220722
0.818,5.264557837
0.819,5.17427089
0.82,5.106910036
0.821,5.057849682
0.822,5.022803585
0.823,4.998936108
0.824,4.984771926
0.825,4.979933999
0.826,4.984935055
0.827,5.001004927
0.828,5.029830134
0.829,5.072963613
0.83,5.130520965
0.831,5.198837294
0.832,5.267688538
0.833,5.320023933
0.834,5.33830898
0.835,5.315497644
0.836,5.259693963
0.837,5.1872477
0.838,5.112944277
0.839,5.045667105
0.84,4.989069458
0.841,4.943709591
0.842,4.908744315
0.843,4.882879961
0.844,4.864812572
0.845,4.853403501
0.846,4.847744097
0.847,4.847191517
0.848,4.851420878
0.849,4.860528096
0.85,4.875226902
0.851,4.897213761
0.852,4.929827738
0.853,4.979170215
0.854,5.055556358
0.855,5.172897167
0.856,5.334291911
0.857,5.484477084
0.858,5.505550466
0.859,5.387608616
0.86,5.238710015
0.861,5.119412096
0.862,5.034695908
0.863,4.975372214
0.864,4.933206947
0.865,4.902956285
0.866,4.881706383
0.867,4.868137267
0.868,4.862080221
0.869,4.864322507
0.87,4.87657304
0.871,4.901485087
0.872,4.942524106
0.873,5.003158786
0.874,5.084283333
0.875,5.178626248
0.876,5.2641827
0.877,5.307791966
0.878,5.288375649
0.879,5.21674834
0.88,5.12291862
0.881,5.031775304
0.882,4.95500576
0.883,4.895168988
0.884,4.850882459
0.885,4.819708229
0.886,4.799291234
0.887,4.787677724
0.888,4.783336619
0.889,4.785108051
0.89,4.792165025
0.891,4.804024128
0.892,4.820633632
0.893,4.842587531
0.894,4.871569591
0.895,4.911251768
0.896,4.969085335
0.897,5.05946019
0.898,5.205690901
0.899,5.416943061
0.9,5.585272545
0.901,5.528742266
0.902,5.345815373
0.903,5.193257951
0.904,5.094266099
0.905,5.031646455
0.906,4.990720704
0.907,4.962990822
0.908,4.943943467
0.909,4.931348617
0.91,4.924354179
0.911,4.923073796
0.912,4.928469859
0.913,4.942443857
0.914,4.968097295
0.915,5.010085808
0.916,5.07469828
0.917,5.168298352
0.918,5.290568038
0.919,5.418961194
0.92,5.499170292
0.921,5.484175869
0.922,5.391325224
0.923,5.276059945
0.924,5.175463007
0.925,5.100162056
0.926,5.048430079
0.927,5.015620148
0.928,4.997458495
0.929,4.990698758
0.93,4.99299523
0.931,5.002659131
0.932,5.018464231
0.933,5.039536181
0.934,5.065331368
0.935,5.095722735
0.936,5.13124954
0.937,5.173681158
0.938,5.227273201
0.939,5.301638763
0.94,5.417983987
0.941,5.615846889
0.942,5.898656584
0.943,6.00777168
0.944,5.812437112
0.945,5.617351094
0.946,5.5050534
0.947,5.444512223
0.948,5.410811548
0.949,5.391346266
0.95,5.380037769
0.951,5.37398402
0.952,5.37192369
0.953,5.373561109
0.954,5.379305853
0.955,5.390253852
0.956,5.408370088
0.957,5.43691231
0.958,5.481177379
0.959,5.54952728
0.96,5.653676812
0.961,5.803070358
0.962,5.979463402
0.963,6.098681867
0.964,6.07223564
0.965,5.94326519
0.966,5.809144667
0.967,5.711009991
0.968,5.64948781
0.969,5.615692338
0.97,5.601757735
0.971,5.602284342
0.972,5.613767336
0.973,5.633915141
0.974,5.661173904
0.975,5.694442856
0.976,5.732924192
0.977,5.776102983
0.978,5.823847237
0.979,5.876727937
0.98,5.936789604
0.981,6.009452384
0.982,6.108539761
0.983,6.269440645
0.984,6.562565237
0.985,6.884673014
0.986,6.743365186
0.987,6.492715365
0.988,6.367862529
0.989,6.314518905
0.99,6.292590893
0.991,6.28489879
0.992,6.284090624
0.993,6.286909474
0.994,6.291961279
0.995,6.298812453
0.996,6.307624453
0.997,6.319044303
0.998,6.334265484
0.999,6.355273468
1,6.385382233
